enNu(GeV),kappa_inf,kappa_th,kappa_h,kappa_10,kappa_1
1.000000e+02,2.586038e-29,4.222103e-28,3.504346e-27,1.300408e-26,1.709952e-26
1.324193e+02,2.586038e-29,4.222103e-28,3.504346e-27,1.300408e-26,1.709952e-26
1.753487e+02,2.606846e-22,4.256075e-21,3.532542e-20,1.310871e-19,1.723710e-19
2.321954e+02,2.586038e-29,4.222103e-28,3.504346e-27,1.300408e-26,1.709952e-26
3.074715e+02,7.724618e-22,1.261162e-20,1.046765e-19,3.884380e-19,5.107707e-19
4.071516e+02,7.286930e-21,1.189703e-19,9.874533e-19,3.664285e-18,4.818296e-18
5.391472e+02,1.610449e-20,2.629304e-19,2.182322e-18,8.098257e-18,1.064868e-17
7.139348e+02,4.179226e-20,6.823226e-19,5.663277e-18,2.101554e-17,2.763406e-17
9.453873e+02,4.572244e-20,7.464887e-19,6.195857e-18,2.299185e-17,3.023279e-17
1.251875e+03,4.798762e-20,7.834714e-19,6.502813e-18,2.413092e-17,3.173059e-17
1.657724e+03,7.734307e-20,1.262744e-18,1.048077e-17,3.889251e-17,5.114113e-17
2.195146e+03,7.918045e-20,1.292742e-18,1.072976e-17,3.981646e-17,5.235605e-17
2.906797e+03,1.576633e-19,2.574094e-18,2.136498e-17,7.928210e-17,1.042508e-16
3.849159e+03,2.349515e-19,3.835943e-18,3.183833e-17,1.181471e-16,1.553557e-16
5.097029e+03,3.220292e-19,5.257620e-18,4.363825e-17,1.619347e-16,2.129336e-16
6.749449e+03,6.842225e-19,1.117098e-17,9.271913e-17,3.440662e-16,4.524247e-16
8.937571e+03,1.027776e-18,1.678002e-17,1.392742e-16,5.168246e-16,6.795908e-16
1.183507e+04,1.466628e-18,2.394495e-17,1.987431e-16,7.375044e-16,9.697704e-16
1.567191e+04,2.011750e-18,3.284490e-17,2.726126e-16,1.011623e-15,1.330218e-15
2.075263e+04,3.100244e-18,5.061622e-17,4.201146e-16,1.558980e-15,2.049957e-15
2.748048e+04,5.794036e-18,9.459651e-17,7.851511e-16,2.913573e-15,3.831159e-15
3.638946e+04,9.152350e-18,1.494261e-16,1.240237e-15,4.602324e-15,6.051758e-15
4.818666e+04,1.408914e-17,2.300268e-16,1.909223e-15,7.084826e-15,9.316086e-15
6.380843e+04,2.200953e-17,3.593393e-16,2.982516e-15,1.106765e-14,1.455324e-14
8.449466e+04,2.770003e-17,4.522454e-16,3.753637e-15,1.392916e-14,1.831594e-14
1.118872e+05,3.972449e-17,6.485631e-16,5.383074e-15,1.997574e-14,2.626681e-14
1.481603e+05,5.734286e-17,9.362099e-16,7.770542e-15,2.883526e-14,3.791650e-14
1.961927e+05,9.153363e-17,1.494427e-15,1.240374e-14,4.602834e-14,6.052428e-14
2.597970e+05,1.153729e-16,1.883640e-15,1.563421e-14,5.801610e-14,7.628741e-14
3.440213e+05,1.628149e-16,2.658202e-15,2.206308e-14,8.187263e-14,1.076572e-13
4.555506e+05,1.676775e-16,2.737592e-15,2.272201e-14,8.431783e-14,1.108725e-13
6.032368e+05,1.387327e-16,2.265023e-15,1.879969e-14,6.976271e-14,9.173344e-14
7.988018e+05,8.502693e-17,1.388195e-15,1.152202e-14,4.275640e-14,5.622189e-14
1.057768e+06,2.291024e-17,3.740448e-16,3.104572e-15,1.152058e-14,1.514881e-14
1.400688e+06,1.161558e-17,1.896421e-16,1.574029e-15,5.840975e-15,7.680503e-15
1.854781e+06,1.618865e-17,2.643046e-16,2.193728e-15,8.140580e-15,1.070433e-14
2.456088e+06,1.770247e-17,2.890199e-16,2.398865e-15,8.901812e-15,1.170530e-14
3.252334e+06,2.369265e-17,3.868188e-16,3.210596e-15,1.191402e-14,1.566616e-14
4.306717e+06,2.505606e-17,4.090786e-16,3.395352e-15,1.259962e-14,1.656768e-14
5.702924e+06,5.547155e-17,9.056579e-16,7.516961e-15,2.789426e-14,3.667915e-14
7.551770e+06,1.048855e-16,1.712416e-15,1.421305e-14,5.274241e-14,6.935285e-14
1.000000e+07,1.440141e-16,2.351251e-15,1.951539e-14,7.241854e-14,9.522568e-14
1.324193e+07,2.746178e-16,4.483556e-15,3.721352e-14,1.380935e-13,1.815840e-13
1.753487e+07,3.455647e-16,5.641872e-15,4.682754e-14,1.737697e-13,2.284958e-13
2.321954e+07,5.479996e-16,8.946931e-15,7.425953e-14,2.755655e-13,3.623507e-13
3.074715e+07,7.631686e-16,1.245990e-14,1.034171e-13,3.837648e-13,5.046257e-13
4.071516e+07,1.558141e-15,2.543904e-14,2.111440e-13,7.835224e-13,1.030281e-12
5.391472e+07,2.754257e-15,4.496746e-14,3.732300e-13,1.384998e-12,1.821182e-12
7.139348e+07,4.948487e-15,8.079163e-14,6.705705e-13,2.488382e-12,3.272061e-12
9.453873e+07,6.090776e-15,9.944125e-14,8.253623e-13,3.062790e-12,4.027370e-12
1.251875e+08,7.556398e-15,1.233698e-13,1.023969e-12,3.799789e-12,4.996476e-12
1.657724e+08,6.364780e-15,1.039148e-13,8.624927e-13,3.200575e-12,4.208549e-12
2.195146e+08,4.849054e-15,7.916823e-14,6.570963e-13,2.438381e-12,3.206313e-12
2.906797e+08,4.203533e-15,6.862911e-14,5.696216e-13,2.113776e-12,2.779479e-12
3.849159e+08,3.702584e-15,6.045035e-14,5.017379e-13,1.861871e-12,2.448239e-12
5.097029e+08,3.781474e-15,6.173835e-14,5.124283e-13,1.901541e-12,2.500403e-12
6.749449e+08,3.069447e-14,5.011342e-13,4.159414e-12,1.543493e-11,2.029594e-11
8.937571e+08,3.366125e-14,5.495714e-13,4.561442e-12,1.692680e-11,2.225764e-11
1.183507e+09,3.175573e-14,5.184608e-13,4.303225e-12,1.596859e-11,2.099766e-11
1.567191e+09,2.901845e-14,4.737706e-13,3.932296e-12,1.459213e-11,1.918771e-11
2.075263e+09,3.255087e-14,5.314427e-13,4.410975e-12,1.636844e-11,2.152343e-11
2.748048e+09,2.764517e-14,4.513497e-13,3.746203e-12,1.390157e-11,1.827966e-11
3.638946e+09,2.341167e-14,3.822313e-13,3.172520e-12,1.177272e-11,1.548037e-11
4.818666e+09,1.154832e-14,1.885440e-13,1.564915e-12,5.807156e-12,7.636033e-12
6.380843e+09,2.224808e-15,3.632340e-14,3.014842e-13,1.118761e-12,1.471098e-12
8.449466e+09,2.461874e-16,4.019386e-15,3.336090e-14,1.237971e-13,1.627851e-13
1.118872e+10,4.402086e-30,7.187079e-29,5.965276e-28,2.213620e-27,2.910767e-27
1.481603e+10,4.402086e-30,7.187079e-29,5.965276e-28,2.213620e-27,2.910767e-27
1.961927e+10,4.402086e-30,7.187079e-29,5.965276e-28,2.213620e-27,2.910767e-27
2.597970e+10,4.402086e-30,7.187079e-29,5.965276e-28,2.213620e-27,2.910767e-27
3.440213e+10,4.402086e-30,7.187079e-29,5.965276e-28,2.213620e-27,2.910767e-27
4.555506e+10,4.402086e-30,7.187079e-29,5.965276e-28,2.213620e-27,2.910767e-27
6.032368e+10,4.402086e-30,7.187079e-29,5.965276e-28,2.213620e-27,2.910767e-27
7.988018e+10,4.402086e-30,7.187079e-29,5.965276e-28,2.213620e-27,2.910767e-27
1.057768e+11,4.402086e-30,7.187079e-29,5.965276e-28,2.213620e-27,2.910767e-27
1.400688e+11,4.402086e-30,7.187079e-29,5.965276e-28,2.213620e-27,2.910767e-27
1.854781e+11,4.402086e-30,7.187079e-29,5.965276e-28,2.213620e-27,2.910767e-27
2.456088e+11,4.402086e-30,7.187079e-29,5.965276e-28,2.213620e-27,2.910767e-27
3.252334e+11,4.402086e-30,7.187079e-29,5.965276e-28,2.213620e-27,2.910767e-27
4.306717e+11,4.402086e-30,7.187079e-29,5.965276e-28,2.213620e-27,2.910767e-27
5.702924e+11,4.402086e-30,7.187079e-29,5.965276e-28,2.213620e-27,2.910767e-27
7.551770e+11,4.402086e-30,7.187079e-29,5.965276e-28,2.213620e-27,2.910767e-27
